21/09/2022	1:00 PM
Voltage (V),Current (mA)
0.504	-0.006
0.533	-0.005
0.568	-0.005
0.597	-0.005
0.627	-0.006
0.656	-0.005
0.685	-0.006
0.714	-0.005
0.743	-0.005
0.772	-0.004
0.808	-0.003
0.838	-0.000
0.868	0.004
0.897	0.011
0.926	0.023
0.955	0.038
0.984	0.059
1.013	0.084
1.047	0.120
1.075	0.153
1.103	0.186
1.131	0.224
1.158	0.260
