5/10/2022	1:08 PM
Voltage (V),Current (mA)
0.003	0.003
0.247	0.737
0.493	1.424
0.743	2.072
0.991	2.657
1.241	3.195
1.486	3.670
1.735	4.097
1.991	4.482
2.244	4.804
2.489	5.065
2.740	5.283
2.987	5.448
3.245	5.575
3.496	5.660
3.746	5.717
3.997	5.756
4.246	5.785
4.505	5.810
4.753	5.829
5.003	5.847
5.254	5.862
5.502	5.877
5.750	5.891
6.007	5.904
6.242	5.915
6.501	5.927
6.751	5.938
6.997	5.948
7.246	5.957
7.504	5.967
7.756	5.976
8.005	5.985
